id;pos_x[m];pos_y[m];pos_z[m];or_x[rad];or_y[rad];or_z[rad];or_q_x;or_q_y;or_q_z;or_q_w
0;0.0;0.0;-0.0;0.0;0.0;1.5707956182169394;-0.0;0.0;0.7071065306663513;0.7071070671081543
1;0.0004499662609305233;1.0;-1.75308358669281;0.0;0.0;-0.7853980942716289;0.0;-0.0;-0.3826833963394165;0.9238795638084412
2;0.0055074370466172695;1.0;-1.7498786449432373;0.0;0.0;-0.7853980942716289;0.0;-0.0;-0.3826833963394165;0.9238795638084412
3;0.01358164381235838;1.0;-1.7548795938491821;0.0;0.0;-0.7853980942716289;0.0;-0.0;-0.3826833963394165;0.9238795638084412
4;0.02520589344203472;1.0;-1.7596991062164307;0.0;0.0;-0.7853980942716289;0.0;-0.0;-0.3826833963394165;0.9238795638084412
5;0.04033834859728813;1.0;-1.7816251516342163;0.0;0.0;-0.7853980942716289;0.0;-0.0;-0.3826833963394165;0.9238795638084412
6;0.05892454460263252;1.0;-1.82646906375885;0.0;0.0;-0.7853980942716289;0.0;-0.0;-0.3826833963394165;0.9238795638084412
7;0.0750909373164177;1.0;-1.8492542505264282;0.0;0.0;-0.7853980942716289;0.0;-0.0;-0.3826833963394165;0.9238795638084412
8;0.10617843270301819;1.0;-1.9248478412628174;0.0;0.0;-0.7853980942716289;0.0;-0.0;-0.3826833963394165;0.9238795638084412
9;0.13467605412006378;1.0;-2.0104942321777344;0.0;0.0;-0.7853980942716289;0.0;-0.0;-0.3826833963394165;0.9238795638084412
10;0.16628791391849518;1.0;-2.0937020778656006;0.0;0.0;-0.7853980942716289;0.0;-0.0;-0.3826833963394165;0.9238795638084412
11;0.20090022683143616;1.0;-2.183664083480835;0.0;0.0;-0.7853980942716289;0.0;-0.0;-0.3826833963394165;0.9238795638084412
12;0.23838843405246735;1.0;-2.242755651473999;0.0;0.0;-0.7853980942716289;0.0;-0.0;-0.3826833963394165;0.9238795638084412
13;0.26831114292144775;1.0;-2.328324556350708;0.0;0.0;-0.7853980942716289;0.0;-0.0;-0.3826833963394165;0.9238795638084412
14;0.32144302129745483;1.0;-2.4352431297302246;0.0;0.0;-0.7853980942716289;0.0;-0.0;-0.3826833963394165;0.9238795638084412
15;0.36671045422554016;1.0;-2.4967033863067627;0.0;0.0;-0.7853980942716289;0.0;-0.0;-0.3826833963394165;0.9238795638084412
16;0.41425710916519165;1.0;-2.564063549041748;0.0;0.0;-0.7853980942716289;0.0;-0.0;-0.3826833963394165;0.9238795638084412
17;0.463911771774292;1.0;-2.6278469562530518;0.0;0.0;-0.7853980942716289;0.0;-0.0;-0.3826833963394165;0.9238795638084412
18;0.5024289488792419;1.0;-2.660545587539673;0.0;0.0;-0.7853980942716289;0.0;-0.0;-0.3826833963394165;0.9238795638084412
19;0.5688234567642212;1.0;-2.715327739715576;0.0;0.0;-0.7853980942716289;0.0;-0.0;-0.3826833963394165;0.9238795638084412
20;0.623702883720398;1.0;-2.767112970352173;0.0;0.0;-0.7853980942716289;0.0;-0.0;-0.3826833963394165;0.9238795638084412
21;0.6799366474151611;1.0;-2.8330605030059814;0.0;0.0;-0.7853980942716289;0.0;-0.0;-0.3826833963394165;0.9238795638084412
22;0.737322211265564;1.0;-2.896456241607666;0.0;0.0;-0.7853980942716289;0.0;-0.0;-0.3826833963394165;0.9238795638084412
23;0.795653223991394;1.0;-2.9391098022460938;0.0;0.0;-0.7853980942716289;0.0;-0.0;-0.3826833963394165;0.9238795638084412
24;0.8398956060409546;1.0;-2.989417552947998;0.0;0.0;-0.7853980942716289;0.0;-0.0;-0.3826833963394165;0.9238795638084412
25;0.9143089056015015;1.0;-3.014350175857544;0.0;0.0;-0.7853980942716289;0.0;-0.0;-0.3826833963394165;0.9238795638084412
26;0.9742065072059631;1.0;-3.0254344940185547;0.0;0.0;-0.7853980942716289;0.0;-0.0;-0.3826833963394165;0.9238795638084412
27;1.0341969728469849;1.0;-3.03676700592041;0.0;0.0;-0.7853980942716289;0.0;-0.0;-0.3826833963394165;0.9238795638084412
28;1.0940643548965454;1.0;-3.062458038330078;0.0;0.0;-0.7853980942716289;0.0;-0.0;-0.3826833963394165;0.9238795638084412
29;1.1535933017730713;1.0;-3.10538387298584;0.0;0.0;-0.7853980942716289;0.0;-0.0;-0.3826833963394165;0.9238795638084412
30;1.2125693559646606;1.0;-3.124958038330078;0.0;0.0;-0.7853980942716289;0.0;-0.0;-0.3826833963394165;0.9238795638084412
31;1.2563109397888184;1.0;-3.180412769317627;0.0;0.0;-0.7853980942716289;0.0;-0.0;-0.3826833963394165;0.9238795638084412
32;1.328016996383667;1.0;-3.1119704246520996;0.0;0.0;-0.7853980942716289;0.0;-0.0;-0.3826833963394165;0.9238795638084412
33;1.38407301902771;1.0;-3.1643130779266357;0.0;0.0;-0.7853980942716289;0.0;-0.0;-0.3826833963394165;0.9238795638084412
34;1.4387468099594116;1.0;-3.1715941429138184;0.0;0.0;-0.7853980942716289;0.0;-0.0;-0.3826833963394165;0.9238795638084412
35;1.4918416738510132;1.0;-3.1758055686950684;0.0;0.0;-0.7853980942716289;0.0;-0.0;-0.3826833963394165;0.9238795638084412
36;1.5431662797927856;1.0;-3.1769683361053467;0.0;0.0;-0.7853980942716289;0.0;-0.0;-0.3826833963394165;0.9238795638084412
37;1.5925360918045044;1.0;-3.197563648223877;0.0;0.0;-0.7853980942716289;0.0;-0.0;-0.3826833963394165;0.9238795638084412
38;1.6397734880447388;1.0;-3.170379877090454;0.0;0.0;-0.7853980942716289;0.0;-0.0;-0.3826833963394165;0.9238795638084412
39;1.6847083568572998;1.0;-3.1152303218841553;0.0;0.0;-0.7853980942716289;0.0;-0.0;-0.3826833963394165;0.9238795638084412
40;1.7168009281158447;1.0;-3.176492214202881;0.0;0.0;-0.7853980942716289;0.0;-0.0;-0.3826833963394165;0.9238795638084412
41;1.7670328617095947;1.0;-3.1339833736419678;0.0;0.0;-0.7853980942716289;0.0;-0.0;-0.3826833963394165;0.9238795638084412
42;1.8041259050369263;1.0;-3.1161012649536133;0.0;0.0;-0.7853980942716289;0.0;-0.0;-0.3826833963394165;0.9238795638084412
43;1.8383251428604126;1.0;-3.1182610988616943;0.0;0.0;-0.7853980942716289;0.0;-0.0;-0.3826833963394165;0.9238795638084412
44;1.862000823020935;1.0;-3.076235294342041;0.0;0.0;-0.7853980942716289;0.0;-0.0;-0.3826833963394165;0.9238795638084412
45;1.8975598812103271;1.0;-3.0441768169403076;0.0;0.0;-0.7853980942716289;0.0;-0.0;-0.3826833963394165;0.9238795638084412
46;1.9223824739456177;1.0;-2.990798234939575;0.0;0.0;-0.7853980942716289;0.0;-0.0;-0.3826833963394165;0.9238795638084412
47;1.9438854455947876;1.0;-2.9811275005340576;0.0;0.0;-0.7853980942716289;0.0;-0.0;-0.3826833963394165;0.9238795638084412
48;1.961991548538208;1.0;-2.969777822494507;0.0;0.0;-0.7853980942716289;0.0;-0.0;-0.3826833963394165;0.9238795638084412
49;1.976635217666626;1.0;-2.943803071975708;0.0;0.0;-0.7853980942716289;0.0;-0.0;-0.3826833963394165;0.9238795638084412
50;1.9877642393112183;1.0;-2.9547252655029297;0.0;0.0;-0.7853980942716289;0.0;-0.0;-0.3826833963394165;0.9238795638084412
51;1.9937800168991089;1.0;-2.908113956451416;0.0;0.0;-0.7853980942716289;0.0;-0.0;-0.3826833963394165;0.9238795638084412
52;1.9993304014205933;1.0;-2.972748041152954;0.0;0.0;-0.7853980942716289;0.0;-0.0;-0.3826833963394165;0.9238795638084412
53;1.9997260570526123;1.0;-2.948873281478882;0.0;0.0;-0.7853980942716289;0.0;-0.0;-0.3826833963394165;0.9238795638084412
54;1.9976611137390137;1.0;-2.9854676723480225;0.0;0.0;-0.7853980942716289;0.0;-0.0;-0.3826833963394165;0.9238795638084412
55;1.9897347688674927;1.0;-3.0109877586364746;0.0;0.0;-0.7853980942716289;0.0;-0.0;-0.3826833963394165;0.9238795638084412
56;1.9794526100158691;0.9999313950538635;-3.0245449542999268;-1.4120820376737877e-09;-0.08937453832691779;-0.785398093465949;-0.017095385119318962;-0.041271913796663284;-0.38230136036872864;0.9229572415351868
57;1.970165491104126;0.9991397857666016;-2.9601199626922607;8.564388263138312e-09;-0.14439452013642953;-0.7853981198893589;-0.027604691684246063;-0.06664364039897919;-0.3816864788532257;0.9214727878570557
58;1.9524633884429932;0.995694637298584;-3.018951416015625;1.8125519385202346e-08;-0.2784370969537592;-0.7853982247939657;-0.0531046986579895;-0.12820608913898468;-0.3789809048175812;0.9149407148361206
59;1.9388114213943481;0.9885838627815247;-3.0234203338623047;1.2829075173877791e-08;-0.3539761263478633;-0.7853980180125566;-0.06737732887268066;-0.1626633107662201;-0.37670525908470154;0.9094471335411072
60;1.9266796112060547;0.9766154885292053;-3.0229361057281494;3.5256739984188074e-09;-0.3579282461901225;-0.7853980458279898;-0.06812158972024918;-0.16446010768413544;-0.376571387052536;0.909123957157135
61;1.9164412021636963;0.966640055179596;-3.0202367305755615;1.677646929124577e-08;-0.2723315511561781;-0.7853980864406475;-0.051947496831417084;-0.12541238963603973;-0.3791411817073822;0.9153279066085815
62;1.9028605222702026;0.9425795674324036;-2.985980987548828;7.601275896019097e-08;-0.18488026170193744;-0.7853987026162785;-0.035324931144714355;-0.08528196811676025;-0.381049782037735;0.9199349284172058
63;1.8887231349945068;0.9231709837913513;-2.9992635250091553;3.204347195919759e-08;-0.14065966896556736;-0.7853987104159994;-0.026891885325312614;-0.0649227425456047;-0.3817376494407654;0.9215954542160034
64;1.8776317834854126;0.8977940678596497;-2.9587743282318115;3.7612034719348386e-08;-0.09918938759984347;-0.7853986185406808;-0.018971282988786697;-0.045800745487213135;-0.38221311569213867;0.9227434396743774
65;1.8573637008666992;0.8788032531738281;-3.014923572540283;2.361304934466016e-08;-0.07791555311216397;-0.7853980906373956;-0.014904712326824665;-0.035983193665742874;-0.3823930323123932;0.9231785535812378
66;1.8382525444030762;0.8560059070587158;-2.9720022678375244;2.2306087683827115e-08;-0.05873763173031868;-0.7853987008316068;-0.011237340047955513;-0.02712934836745262;-0.3825186491012573;0.9234810471534729
67;1.8206509351730347;0.8292005062103271;-2.923427104949951;3.232146759673505e-08;-0.04246306557195989;-0.7853991937778051;-0.008124340325593948;-0.019613906741142273;-0.3825976550579071;0.9236711263656616
68;1.7995879650115967;0.8035178184509277;-2.896497964859009;1.9420888637541972e-08;-0.031238315022429783;-0.7853992160923878;-0.005976947955787182;-0.014429633505642414;-0.38263723254203796;0.9237666726112366
69;1.7804336547851562;0.7861790060997009;-2.8768575191497803;1.892657086800476e-08;-0.02559924216013098;-0.7853991860647191;-0.00489806616678834;-0.011824985966086388;-0.38265255093574524;0.9238036870956421
70;1.7556698322296143;0.74760901927948;-2.8066320419311523;7.783409969821213e-09;-0.016354916672714385;-0.7853987023538401;-0.003129341173917055;-0.007554902695119381;-0.38267087936401367;0.923848569393158
71;1.7312780618667603;0.7192789912223816;-2.7459158897399902;4.291614671363494e-09;-0.011810539921324414;-0.785398639003816;-0.0022598353680223227;-0.005455726757645607;-0.38267698884010315;0.9238632917404175
72;1.698299527168274;0.6979138255119324;-2.7368016242980957;4.0851329465582736e-09;-0.009287476020187483;-0.7853986354310201;-0.0017770742997527122;-0.004290239419788122;-0.3826795220375061;0.9238694906234741
73;1.6780190467834473;0.6764902472496033;-2.704143524169922;4.151123551635755e-09;-0.007280587728362604;-0.785398666678127;-0.0013930760324001312;-0.003363186027854681;-0.38268113136291504;0.9238733053207397
74;1.63746178150177;0.6459875106811523;-2.6882858276367188;3.425067820347664e-09;-0.005157589151139715;-0.7853986340685896;-0.0009868599008768797;-0.002382493345066905;-0.3826823830604553;0.9238763451576233
75;1.60648775100708;0.6189466714859009;-2.669257402420044;1.7432707477674775e-09;-0.003803968206078844;-0.785398687780922;-0.0007278569974005222;-0.001757203252054751;-0.3826829791069031;0.9238777756690979
76;1.576601266860962;0.5900071263313293;-2.663952350616455;4.5916902576365e-11;-0.0027515885479302083;-0.7853986707188525;-0.0005264938226900995;-0.0012710676528513432;-0.38268330693244934;0.92387855052948
77;1.5461698770523071;0.5610131025314331;-2.648550271987915;-1.731121762725629e-11;-0.001978754755592688;-0.785398709704811;-0.0003786184825003147;-0.0009140652255155146;-0.38268348574638367;0.9238790273666382
78;1.5136151313781738;0.5337561964988708;-2.6975979804992676;4.742333136891643e-12;-0.0014635323497785898;-0.785398706546241;-0.00028003493207506835;-0.0006760636460967362;-0.38268357515335083;0.9238792061805725
79;1.4849907159805298;0.5173983573913574;-2.7164418697357178;5.3197135916842036e-11;-0.001224517673853393;-0.7853986964243522;-0.0002343014202779159;-0.0005656533176079392;-0.3826836049556732;0.9238792657852173
80;1.4445961713790894;0.48285654187202454;-2.753074884414673;-1.803201962119634e-11;-0.0008318423931191936;-0.7853986893923182;-0.00015916624397505075;-0.0003842610167339444;-0.3826836347579956;0.9238793849945068
81;1.4121946096420288;0.4555826485157013;-2.7783379554748535;1.8182708752022034e-11;-0.0006124972638549323;-0.7853986333878763;-0.00011719633766915649;-0.00028293681680224836;-0.3826836347579956;0.9238793849945068
82;1.3748315572738647;0.43374624848365784;-2.8220291137695312;4.239484255463614e-12;-0.0004814863126190239;-0.7853987115057778;-9.21284663490951e-05;-0.0002224176423624158;-0.382683664560318;0.9238794445991516
83;1.3453956842422485;0.40467116236686707;-2.816920042037964;2.3306450203556735e-11;-0.0003489255532555055;-0.785398692046187;-6.676404154859483e-05;-0.0001611825719010085;-0.382683664560318;0.9238794445991516
84;1.3132538795471191;0.3792020380496979;-2.8575279712677;2.48204703172551e-11;-0.00026214123260747747;-0.7853986826715335;-5.015857095713727e-05;-0.00012109344970667735;-0.382683664560318;0.9238794445991516
85;1.287619948387146;0.3483317792415619;-2.827404499053955;4.612214639169356e-11;-0.00018537043417002374;-0.7853986765982216;-3.546909647411667e-05;-8.562997390981764e-05;-0.382683664560318;0.9238794445991516
86;1.2661019563674927;0.32832011580467224;-2.8739869594573975;3.168220343223963e-11;-0.00014805792494785233;-0.7853986743989312;-2.832965947163757e-05;-6.839384150225669e-05;-0.382683664560318;0.9238794445991516
87;1.2296655178070068;0.2974063754081726;-2.9454665184020996;1.957448016538992e-11;-0.00010490417006654732;-0.7848605835002078;-2.0059507733094506e-05;-4.846480442211032e-05;-0.3824350833892822;0.9239823818206787
88;1.2049392461776733;0.27014926075935364;-2.988360643386841;-1.0652656314831683e-06;-7.569789083688561e-05;-0.774584360133641;-1.4788069165661e-05;-3.484450280666351e-05;-0.37768253684043884;0.9259351491928101
89;1.1925952434539795;0.24476073682308197;-2.9728734493255615;0.023035047861502376;-0.0007175212359166351;-0.7573039322448607;0.010568815283477306;-0.004590893629938364;-0.36963987350463867;0.929103672504425
90;1.1677478551864624;0.2112274467945099;-2.9948513507843018;0.15009892715110498;-0.016449213825029122;-0.7196199979763008;0.06728760898113251;-0.03407512977719307;-0.3505162298679352;0.9335147142410278
91;1.153288722038269;0.19481095671653748;-3.0728917121887207;0.24075348645310465;-0.02969693949075226;-0.6851382665745557;0.10814468562602997;-0.054217468947172165;-0.33176106214523315;0.9355745315551758
92;1.1360790729522705;0.1701374053955078;-3.137314796447754;0.3006117168317973;-0.04632614922874567;-0.6338117746814342;0.13510969281196594;-0.06841039657592773;-0.3047364354133606;0.9403195977210999
93;1.136971116065979;0.14988094568252563;-3.117717742919922;0.20150932572204167;-0.04162514458958375;-0.5930435579096685;0.0901237428188324;-0.049185819923877716;-0.2886488139629364;0.9519140720367432
94;1.1358435153961182;0.135721817612648;-3.1682755947113037;0.14893136251756262;-0.0373257367797641;-0.5596289881839498;0.06635120511054993;-0.03842941299080849;-0.2740296423435211;0.9586597681045532
95;1.1447550058364868;0.12148181349039078;-3.1661806106567383;0.11045250965549407;-0.030509706850546964;-0.53165397311415;0.04925188794732094;-0.029195303097367287;-0.26146382093429565;0.9635136723518372
96;1.145910382270813;0.11421586573123932;-3.204010009765625;0.09122270442550036;-0.027068376889594258;-0.5158728950908361;0.04063444584608078;-0.024702157825231552;-0.2542005181312561;0.9659817218780518
97;1.161265254020691;0.1007516160607338;-3.224109172821045;0.06291890367208335;-0.02053081919271006;-0.4919048727618413;0.02800792269408703;-0.01760946586728096;-0.2430337369441986;0.9694535136222839
98;1.1770261526107788;0.09243764728307724;-3.23494553565979;0.04953217858406111;-0.016825913247232767;-0.47868281822523195;0.022063039243221283;-0.01404084824025631;-0.2367793768644333;0.9712114334106445
99;1.2052301168441772;0.08005966991186142;-3.2479491233825684;0.03361098059598062;-0.012104629344499856;-0.4614018765418448;0.014975463971495628;-0.009733590297400951;-0.22852446138858795;0.9733743071556091
100;1.2254244089126587;0.07198500633239746;-3.3037965297698975;0.02582206762482701;-0.009640692355869769;-0.4503828111804105;0.011508297175168991;-0.007581058889627457;-0.22321107983589172;0.9746726751327515
101;1.2584381103515625;0.062413476407527924;-3.282745838165283;0.018669096005812683;-0.007167100718805047;-0.44118259506325147;0.008324095979332924;-0.0055389730259776115;-0.2187630534172058;0.9757267832756042
102;1.295220136642456;0.05311993882060051;-3.2586019039154053;0.01348631357104574;-0.005294322291681245;-0.43353071825848777;0.006015966180711985;-0.004035398364067078;-0.21504874527454376;0.9765763878822327
103;1.3098723888397217;0.04909491539001465;-3.306396961212158;0.011731167559516803;-0.00465512241406248;-0.42958778568835837;0.005234644748270512;-0.003524248953908682;-0.2131284773349762;0.977003812789917
104;1.3769004344940186;0.03562052175402641;-3.249523878097534;0.007238523213561983;-0.002929448614773673;-0.42155023766444377;0.003232707967981696;-0.0021895107347518206;-0.20921115577220917;0.9778626561164856
105;1.4217230081558228;0.0273213479667902;-3.240334987640381;0.005344076230044815;-0.0021854636800146083;-0.4171901563358336;0.0023878230713307858;-0.0016223803395405412;-0.20708192884922028;0.9783192873001099
106;1.45075523853302;0.022378750145435333;-3.2333285808563232;0.004470037932146259;-0.0018374921505202868;-0.41493177842147605;0.0019978450145572424;-0.001359412563033402;-0.2059781849384308;0.9785535931587219
107;1.512990117073059;0.012555119581520557;-3.2159435749053955;0.0031135219929489025;-0.001288294640465181;-0.41109321711011615;0.001392517820931971;-0.000948325265198946;-0.20410102605819702;0.9789483547210693
108;1.5505797863006592;0.007099151611328125;-3.250744581222534;0.0025438183555583664;-0.0010577440210409262;-0.4089668723491273;0.0011380163487046957;-0.0007761286105960608;-0.20306053757667542;0.9791651964187622
109;1.6182531118392944;-0.0026062570977956057;-3.180032253265381;0.001773391144935623;-0.0007392167938209289;-0.40656408513370984;0.0007938193739391863;-0.0005410081357695162;-0.201884463429451;0.979408860206604
110;1.6907398700714111;-0.011773273348808289;-3.175708532333374;0.0012618582760516375;-0.0005272625962416299;-0.40437133648363527;0.0005651370156556368;-0.00038495854823850095;-0.2008107453584671;0.9796298146247864
111;1.7631521224975586;-0.020886335521936417;-3.1220734119415283;0.0008963008510680652;-0.00037443635986846057;-0.4027829473635326;0.00040164313395507634;-0.00027307914569973946;-0.2000327706336975;0.9797890782356262
112;1.83272385597229;-0.028921697288751602;-3.0915517807006836;0.0006615539686473179;-0.00027704238148482823;-0.40155107135380563;0.00029650720534846187;-0.00020170523202978075;-0.19942928850650787;0.9799121618270874
113;1.9086852073669434;-0.037478256970644;-3.055689573287964;0.00048188042890537976;-0.00020074845835098287;-0.400462419182676;0.0002161623415304348;-0.00014629082579631358;-0.1988958865404129;0.9800206422805786
114;1.975388765335083;-0.043886974453926086;-3.0265817642211914;0.0003802788982876545;-0.00015819072269405177;-0.3997742350337154;0.00017064850544556975;-0.00011527432798175141;-0.19855867326259613;0.980089008808136
115;2.036771535873413;-0.05028970167040825;-2.995584011077881;0.0002981261927716926;-0.0001240968612137024;-0.3991793031731469;0.0001338017318630591;-9.03709587873891e-05;-0.1982671320438385;0.9801480174064636
116;2.1334736347198486;-0.059364210814237595;-2.9702181816101074;0.00021251559303061125;-8.845328033187385e-05;-0.3984352775874359;9.540363680571318e-05;-6.438059790525585e-05;-0.19790250062942505;0.980221688747406
117;2.218372106552124;-0.06735009700059891;-2.9334523677825928;0.00015710454716310205;-6.496906294506896e-05;-0.3979276827617686;7.058189657982439e-05;-4.7369820094900206e-05;-0.19765371084213257;0.9802719354629517
