id;pos_x[m];pos_y[m];pos_z[m];or_x[rad];or_y[rad];or_z[rad];or_q_x;or_q_y;or_q_z;or_q_w
0;-8.075280888419911e-09;2.018825773220101e-09;0.016129817813634872;0.0;0.0;1.5707956182169394;-0.0;0.0;0.7071065306663513;0.7071070671081543
1;0.00599995581433177;-0.9999819993972778;-0.29170504212379456;0.0;0.0;1.5707956182169394;-0.0;0.0;0.7071065306663513;0.7071070671081543
2;0.013999532908201218;-0.9999020099639893;-0.28896835446357727;0.0;0.0;1.5707956182169394;-0.0;0.0;0.7071065306663513;0.7071070671081543
3;0.021998217329382896;-0.9997579455375671;-0.28694868087768555;0.0;0.0;1.5707956182169394;-0.0;0.0;0.7071065306663513;0.7071070671081543
4;0.027996331453323364;-0.9996079802513123;-0.28898635506629944;0.0;0.0;1.5707956182169394;-0.0;0.0;0.7071065306663513;0.7071070671081543
5;0.03799084946513176;-0.9992780685424805;-0.282973051071167;0.0;0.0;1.5707956182169394;-0.0;0.0;0.7071065306663513;0.7071070671081543
6;0.04598377272486687;-0.9989421367645264;-0.2808820903301239;0.0;0.0;1.5707956182169394;-0.0;0.0;0.7071065306663513;0.7071070671081543
7;0.05397374927997589;-0.9985423684120178;-0.26489460468292236;0.0;0.0;1.5707956182169394;-0.0;0.0;0.7071065306663513;0.7071070671081543
8;0.06196027621626854;-0.9980785846710205;-0.2768402397632599;0.0;0.0;1.5707956182169394;-0.0;0.0;0.7071065306663513;0.7071070671081543
9;0.06994283199310303;-0.9975510239601135;-0.2837292551994324;0.0;0.0;1.5707956182169394;-0.0;0.0;0.7071065306663513;0.7071070671081543
10;0.07792091369628906;-0.9969595074653625;-0.2730260491371155;0.0;0.0;1.5707956182169394;-0.0;0.0;0.7071065306663513;0.7071070671081543
11;0.08589401841163635;-0.9963042140007019;-0.28188422322273254;0.0;0.0;1.5707956182169394;-0.0;0.0;0.7071065306663513;0.7071070671081543
12;0.09386161714792252;-0.9955852031707764;-0.25824663043022156;0.0;0.0;1.5707956182169394;-0.0;0.0;0.7071065306663513;0.7071070671081543
13;0.10182321071624756;-0.9948025345802307;-0.28029581904411316;0.0;0.0;1.5707956182169394;-0.0;0.0;0.7071065306663513;0.7071070671081543
14;0.10977828502655029;-0.9939560294151306;-0.26666679978370667;0.0;0.0;1.5707956182169394;-0.0;0.0;0.7071065306663513;0.7071070671081543
15;0.11772633343935013;-0.9930459856987;-0.2944045960903168;0.0;0.0;1.5707956182169394;-0.0;0.0;0.7071065306663513;0.7071070671081543
16;0.12566685676574707;-0.9920725226402283;-0.33398863673210144;0.0;0.0;1.5707956182169394;-0.0;0.0;0.7071065306663513;0.7071070671081543
17;0.13359932601451874;-0.9910353422164917;-0.3899875581264496;0.0;0.0;1.5707956182169394;-0.0;0.0;0.7071065306663513;0.7071070671081543
18;0.14152325689792633;-0.9899349212646484;-0.42029792070388794;0.0;0.0;1.5707956182169394;-0.0;0.0;0.7071065306663513;0.7071070671081543
19;0.14943811297416687;-0.9887710213661194;-0.4405457079410553;0.0;0.0;1.5707956182169394;-0.0;0.0;0.7071065306663513;0.7071070671081543
20;0.15734341740608215;-0.9875439405441284;-0.5419543981552124;0.0;0.0;1.5707956182169394;-0.0;0.0;0.7071065306663513;0.7071070671081543
21;0.16326580941677094;-0.9865821003913879;-0.6364706158638;0.0;0.0;1.5707956182169394;-0.0;0.0;0.7071065306663513;0.7071070671081543
22;0.1731233149766922;-0.984900176525116;-0.7490108609199524;0.0;0.0;1.5707956182169394;-0.0;0.0;0.7071065306663513;0.7071070671081543
23;0.18099689483642578;-0.983483612537384;-0.8740608096122742;0.0;0.0;1.5707956182169394;-0.0;0.0;0.7071065306663513;0.7071070671081543
24;0.18885888159275055;-0.9820042252540588;-0.935351550579071;0.0;0.0;1.5707956182169394;-0.0;0.0;0.7071065306663513;0.7071070671081543
25;0.1967087835073471;-0.9804619550704956;-1.04877507686615;0.0;0.0;1.5707956182169394;-0.0;0.0;0.7071065306663513;0.7071070671081543
26;0.20258797705173492;-0.9792640209197998;-1.1291069984436035;0.0;0.0;1.5707956182169394;-0.0;0.0;0.7071065306663513;0.7071070671081543
27;0.2123703509569168;-0.9771892428398132;-1.2065155506134033;0.0;0.0;1.5707956182169394;-0.0;0.0;0.7071065306663513;0.7071070671081543
28;0.2201809585094452;-0.9754590392112732;-1.2540531158447266;0.0;0.0;1.5707956182169394;-0.0;0.0;0.7071065306663513;0.7071070671081543
29;0.22797751426696777;-0.9736663699150085;-1.3410100936889648;0.0;0.0;1.5707956182169394;-0.0;0.0;0.7071065306663513;0.7071070671081543
30;0.23575948178768158;-0.9718114137649536;-1.4474633932113647;0.0;0.0;1.5707956182169394;-0.0;0.0;0.7071065306663513;0.7071070671081543
31;0.24352633953094482;-0.9698942303657532;-1.5605601072311401;0.0;0.0;1.5707956182169394;-0.0;0.0;0.7071065306663513;0.7071070671081543
32;0.2512776255607605;-0.9679149985313416;-1.6767834424972534;0.0;0.0;1.5707956182169394;-0.0;0.0;0.7071065306663513;0.7071070671081543
33;0.2590128183364868;-0.9658738374710083;-1.8278802633285522;0.0;0.0;1.5707956182169394;-0.0;0.0;0.7071065306663513;0.7071070671081543
34;0.2667314410209656;-0.963770866394043;-1.8538472652435303;0.0;0.0;1.5707956182169394;-0.0;0.0;0.7071065306663513;0.7071070671081543
35;0.27250921726226807;-0.9621531367301941;-1.9656438827514648;0.0;0.0;1.5707956182169394;-0.0;0.0;0.7071065306663513;0.7071070671081543
36;0.28211697936058044;-0.959380030632019;-2.0306787490844727;0.0;0.0;1.5707956182169394;-0.0;0.0;0.7071065306663513;0.7071070671081543
37;0.28978291153907776;-0.9574506878852844;-2.1354715824127197;2.326220167243795e-10;-0.0224258865759095;1.570795412153311;0.007928579114377499;-0.007928585633635521;0.7070620059967041;0.7070626020431519
38;0.29743024706840515;-0.955745279788971;-2.1397671699523926;-5.8251775483111184e-09;-0.18582137598116433;1.570795354070563;0.06560327112674713;-0.0656033307313919;0.7040566205978394;0.7040572166442871
39;0.30505862832069397;-0.948046088218689;-2.2938811779022217;1.6344214291999404e-08;-0.3340125854238514;1.570795409148448;0.1175430566072464;-0.11754314601421356;0.6972683668136597;0.6972689628601074
40;0.31266745924949646;-0.9216733574867249;-2.2584569454193115;2.3964485587164067e-08;-0.30257388861829865;1.5707954571879243;0.10656838119029999;-0.10656845569610596;0.6990298628807068;0.6990304589271545
41;0.3202562928199768;-0.8889860510826111;-2.394972085952759;3.909870732101937e-09;-0.208368403221726;1.5707954249683351;0.07353612780570984;-0.07353618741035461;0.7032723426818848;0.7032729387283325
42;0.3278246521949768;-0.8496050238609314;-2.3806357383728027;-7.558309934223965e-10;-0.13551126432485286;1.5707953997520647;0.04787379875779152;-0.0478738397359848;0.7054839730262756;0.7054845690727234
43;0.33537203073501587;-0.8012424111366272;-2.387661933898926;6.739287818512965e-09;-0.0846464597785514;1.5707953644293635;0.02991810068488121;-0.029918121173977852;0.7064732313156128;0.7064738273620605
44;0.3428979814052582;-0.7488468885421753;-2.411968469619751;-1.2894988179383272e-09;-0.053181165588625304;1.570795411242814;0.01880015805363655;-0.018800174817442894;0.7068564891815186;0.7068570852279663
45;0.34852802753448486;-0.7109522819519043;-2.4244601726531982;3.7053127177881213e-10;-0.03837394449583503;1.5707953831903931;0.013566400855779648;-0.013566412031650543;0.7069762945175171;0.7069768905639648
46;0.3578835129737854;-0.6446215510368347;-2.4613606929779053;1.6567624365415847e-10;-0.022267099849475988;1.5707954924949004;0.007872442714869976;-0.007872449234127998;0.7070626616477966;0.7070632576942444
47;0.3653421401977539;-0.5904144048690796;-2.4642114639282227;-5.940670881448171e-10;-0.014215348836158308;1.570795392214872;0.005025840364396572;-0.005025845021009445;0.7070885896682739;0.7070891857147217
48;0.37277743220329285;-0.5333057045936584;-2.4599804878234863;7.974341687074541e-10;-0.008923171600050569;1.5707954620197215;0.0031548060942441225;-0.0031548081897199154;0.707099437713623;0.7071000337600708
49;0.3783382475376129;-0.5017445087432861;-2.4780914783477783;-3.6256614681144724e-12;-0.007022618764772859;1.5707954720254462;0.0024828645400702953;-0.0024828666355460882;0.7071021199226379;0.7071027159690857
50;0.3875758945941925;-0.4314345419406891;-2.458031177520752;3.566589059027074e-10;-0.003971219007560279;1.5707955147610084;0.0014040365349501371;-0.0014040374662727118;0.7071051001548767;0.7071056962013245
51;0.394938200712204;-0.37299904227256775;-2.3869478702545166;2.070520778813073e-10;-0.002444386042689903;1.5707954260976584;0.0008642204920761287;-0.0008642210741527379;0.7071059346199036;0.7071065306663513
52;0.4022752046585083;-0.32212957739830017;-2.3598740100860596;2.812613600132079e-11;-0.0016292331647662398;1.5707954388797873;0.000576020625885576;-0.0005760210915468633;0.7071062326431274;0.7071068286895752
53;0.40958642959594727;-0.26492926478385925;-2.2998692989349365;5.944743278404757e-11;-0.0010199545070801513;1.5707955411188506;0.0003606082173064351;-0.0003606084792409092;0.7071064114570618;0.7071070075035095
54;0.41687148809432983;-0.21352379024028778;-2.3291144371032715;4.853483372019614e-12;-0.000695109312936089;1.5707954018363088;0.00024575815768912435;-0.00024575836141593754;0.7071064114570618;0.7071070075035095
55;0.424129843711853;-0.15526488423347473;-2.277740955352783;-1.3766628037085602e-12;-0.0004361867760131735;1.5707954971942737;0.0001542152458569035;-0.00015421537682414055;0.7071064710617065;0.7071070671081543
56;0.4313611090183258;-0.09933765232563019;-2.2220821380615234;1.4721176240603487e-11;-0.0002790689148726878;1.57079546909941;9.866572509054095e-05;-9.866579785011709e-05;0.7071064710617065;0.7071070671081543
57;0.4385647177696228;-0.043360814452171326;-2.1601407527923584;3.436612161088769e-12;-0.0001790523330020961;1.5707954576444811;6.330453470582142e-05;-6.330458563752472e-05;0.7071064710617065;0.7071070671081543
58;0.445740282535553;0.014130353927612305;-2.0679800510406494;-4.069682984399303e-12;-0.00011241434842666439;1.5707954527887935;3.974445644416846e-05;-3.9744492823956534e-05;0.7071064710617065;0.7071070671081543
59;0.45288729667663574;0.070196233689785;-1.993775725364685;-5.727722998204418e-13;-7.18831930809904e-05;1.570795450921345;2.541453613957856e-05;-2.54145579674514e-05;0.7071064710617065;0.7071070671081543
60;0.46000534296035767;0.12153569608926773;-1.9211928844451904;-3.818481993322158e-13;-4.792212869773222e-05;1.5707954502036792;1.6943024093052372e-05;-1.69430386449676e-05;0.7071064710617065;0.7071070671081543
61;0.46709394454956055;0.17768573760986328;-1.8458176851272583;-5.024409710053754e-14;-3.0398365096573328e-05;1.5707954498605619;1.074744068318978e-05;-1.0747449778136797e-05;0.7071064710617065;0.7071070671081543
62;0.4741526246070862;0.2324082851409912;-1.8198975324630737;-7.03410854005562e-14;-1.9669529863055414e-05;1.5707954497262693;6.954226137168007e-06;-6.9542320488835685e-06;0.7071064710617065;0.7071070671081543
63;0.4811810255050659;0.28534308075904846;-1.7758512496948242;4.0193976623094585e-14;-1.3828276190541573e-05;1.570795449677352;4.88903197037871e-06;-4.889036063104868e-06;0.7071064710617065;0.7071070671081543
64;0.4881785809993744;0.34161442518234253;-1.781859278678894;-7.53644380010766e-13;-9.655952093110416e-06;1.570795449652856;3.41389295499539e-06;-3.4138963656005217e-06;0.7071064710617065;0.7071070671081543
65;0.49514490365982056;0.3979240953922272;-1.8170373439788818;-1.0048602575304613e-13;-7.390975437971374e-06;1.5707954496432033;2.6131033337151166e-06;-2.613105607451871e-06;0.7071064710617065;0.7071070671081543
66;0.5020796060562134;0.4528046250343323;-1.9052783250808716;-1.2058328511158086e-13;-4.291533834811117e-06;1.570795449634151;1.5172856819845038e-06;-1.5172870462265564e-06;0.7071064710617065;0.7071070671081543
67;0.5089821219444275;0.5130367279052734;-1.9785047769546509;-6.029164255537403e-14;-2.1457669174006186e-06;1.5707954496306977;7.586428409922519e-07;-7.586435231132782e-07;0.7071064710617065;0.7071070671081543
68;0.5158520936965942;0.5608580112457275;-2.1016736030578613;-6.029164255537403e-14;-2.1457669174006186e-06;1.5707954496306977;7.586428409922519e-07;-7.586435231132782e-07;0.7071064710617065;0.7071070671081543
69;0.5226889848709106;0.6173201203346252;-2.2119548320770264;-6.029164255537403e-14;-2.1457669174006186e-06;1.5707954496306977;7.586428409922519e-07;-7.586435231132782e-07;0.7071064710617065;0.7071070671081543
70;0.5294924974441528;0.679128885269165;-2.270066976547241;-6.029164255537403e-14;-2.1457669174006186e-06;1.5707954496306977;7.586428409922519e-07;-7.586435231132782e-07;0.7071064710617065;0.7071070671081543
71;0.5362620949745178;0.7327296137809753;-2.4120900630950928;-6.029164255537403e-14;-2.1457669174006186e-06;1.5707954496306977;7.586428409922519e-07;-7.586435231132782e-07;0.7071064710617065;0.7071070671081543
72;0.5429973602294922;0.7841999530792236;-2.410292625427246;-6.029164255537403e-14;-2.1457669174006186e-06;1.5707954496306977;7.586428409922519e-07;-7.586435231132782e-07;0.7071064710617065;0.7071070671081543
73;0.5496979355812073;0.8316624164581299;-2.5555403232574463;-6.029164255537403e-14;-2.1457669174006186e-06;1.5707954496306977;7.586428409922519e-07;-7.586435231132782e-07;0.7071064710617065;0.7071070671081543
74;0.5563632845878601;0.8897756934165955;-2.6040687561035156;-6.029164255537403e-14;-2.1457669174006186e-06;1.5707954496306977;7.586428409922519e-07;-7.586435231132782e-07;0.7071064710617065;0.7071070671081543
75;0.562993049621582;0.9449922442436218;-2.6936373710632324;-6.029164255537403e-14;-2.1457669174006186e-06;1.5707954496306977;7.586428409922519e-07;-7.586435231132782e-07;0.7071064710617065;0.7071070671081543
76;0.5695867538452148;1.0031756162643433;-2.727524995803833;-6.029164255537403e-14;-2.1457669174006186e-06;1.5707954496306977;7.586428409922519e-07;-7.586435231132782e-07;0.7071064710617065;0.7071070671081543
77;0.5761440396308899;1.0622990131378174;-2.780637502670288;-6.029164255537403e-14;-2.1457669174006186e-06;1.5707954496306977;7.586428409922519e-07;-7.586435231132782e-07;0.7071064710617065;0.7071070671081543
78;0.582664430141449;1.1105097532272339;-2.842930316925049;-6.029164255537403e-14;-2.1457669174006186e-06;1.5707954496306977;7.586428409922519e-07;-7.586435231132782e-07;0.7071064710617065;0.7071070671081543
79;0.5891474485397339;1.1658681631088257;-2.904752016067505;-6.029164255537403e-14;-2.1457669174006186e-06;1.5707954496306977;7.586428409922519e-07;-7.586435231132782e-07;0.7071064710617065;0.7071070671081543
80;0.5955929160118103;1.2309529781341553;-2.8397436141967773;-6.029164255537403e-14;-2.1457669174006186e-06;1.5707954496306977;7.586428409922519e-07;-7.586435231132782e-07;0.7071064710617065;0.7071070671081543
81;0.6020002365112305;1.284913420677185;-2.9117469787597656;-6.029164255537403e-14;-2.1457669174006186e-06;1.5707954496306977;7.586428409922519e-07;-7.586435231132782e-07;0.7071064710617065;0.7071070671081543
82;0.606780469417572;1.3278836011886597;-2.9003539085388184;-6.029164255537403e-14;-2.1457669174006186e-06;1.5707954496306977;7.586428409922519e-07;-7.586435231132782e-07;0.7071064710617065;0.7071070671081543
83;0.6146988272666931;1.3987934589385986;-2.93845534324646;-6.029164255537403e-14;-2.1457669174006186e-06;1.5707954496306977;7.586428409922519e-07;-7.586435231132782e-07;0.7071064710617065;0.7071070671081543
84;0.6209892630577087;1.454318642616272;-2.9659228324890137;-6.029164255537403e-14;-2.1457669174006186e-06;1.5707954496306977;7.586428409922519e-07;-7.586435231132782e-07;0.7071064710617065;0.7071070671081543
85;0.6256811618804932;1.50265634059906;-2.891062021255493;-6.029164255537403e-14;-2.1457669174006186e-06;1.5707954496306977;7.586428409922519e-07;-7.586435231132782e-07;0.7071064710617065;0.7071070671081543
86;0.6334507465362549;1.5736860036849976;-2.9030330181121826;-6.029164255537403e-14;-2.1457669174006186e-06;1.5707954496306977;7.586428409922519e-07;-7.586435231132782e-07;0.7071064710617065;0.7071070671081543
87;0.639620840549469;1.629307508468628;-2.910003662109375;-6.029164255537403e-14;-2.1457669174006186e-06;1.5707954496306977;7.586428409922519e-07;-7.586435231132782e-07;0.7071064710617065;0.7071070671081543
88;0.6442215442657471;1.6676995754241943;-2.8712756633758545;-6.029164255537403e-14;-2.1457669174006186e-06;1.5707954496306977;7.586428409922519e-07;-7.586435231132782e-07;0.7071064710617065;0.7071070671081543
89;0.6518377661705017;1.7388498783111572;-2.858492374420166;-6.029164255537403e-14;-2.1457669174006186e-06;1.5707954496306977;7.586428409922519e-07;-7.586435231132782e-07;0.7071064710617065;0.7071070671081543
90;0.657883882522583;1.794567346572876;-2.846147298812866;-6.029164255537403e-14;-2.1457669174006186e-06;1.5707954496306977;7.586428409922519e-07;-7.586435231132782e-07;0.7071064710617065;0.7071070671081543
91;0.6638879179954529;1.8503162860870361;-2.8272738456726074;-6.029164255537403e-14;-2.1457669174006186e-06;1.5707954496306977;7.586428409922519e-07;-7.586435231132782e-07;0.7071064710617065;0.7071070671081543
92;0.6698493957519531;1.9104833602905273;-2.7291815280914307;-6.029164255537403e-14;-2.1457669174006186e-06;1.5707954496306977;7.586428409922519e-07;-7.586435231132782e-07;0.7071064710617065;0.7071070671081543
93;0.6742924451828003;1.9531506299972534;-2.710752248764038;-6.029164255537403e-14;-2.1457669174006186e-06;1.5707954496306977;7.586428409922519e-07;-7.586435231132782e-07;0.7071064710617065;0.7071070671081543
94;0.6816434860229492;2.018878698348999;-2.641160726547241;-6.029164255537403e-14;-2.1457669174006186e-06;1.5707954496306977;7.586428409922519e-07;-7.586435231132782e-07;0.7071064710617065;0.7071070671081543
95;0.6874752640724182;2.0776729583740234;-2.5490527153015137;-6.029164255537403e-14;-2.1457669174006186e-06;1.5707954496306977;7.586428409922519e-07;-7.586435231132782e-07;0.7071064710617065;0.7071070671081543
96;0.693263053894043;2.137389659881592;-2.471623182296753;-6.029164255537403e-14;-2.1457669174006186e-06;1.5707954496306977;7.586428409922519e-07;-7.586435231132782e-07;0.7071064710617065;0.7071070671081543
97;0.6990064978599548;2.19477915763855;-2.3914732933044434;-6.029164255537403e-14;-2.1457669174006186e-06;1.5707954496306977;7.586428409922519e-07;-7.586435231132782e-07;0.7071064710617065;0.7071070671081543
98;0.7047051787376404;2.2521963119506836;-2.3054988384246826;-6.029164255537403e-14;-2.1457669174006186e-06;1.5707954496306977;7.586428409922519e-07;-7.586435231132782e-07;0.7071064710617065;0.7071070671081543
99;0.7103587985038757;2.3081798553466797;-2.2380924224853516;-6.029164255537403e-14;-2.1457669174006186e-06;1.5707954496306977;7.586428409922519e-07;-7.586435231132782e-07;0.7071064710617065;0.7071070671081543
100;0.7159669399261475;2.3671133518218994;-2.1166114807128906;-6.029164255537403e-14;-2.1457669174006186e-06;1.5707954496306977;7.586428409922519e-07;-7.586435231132782e-07;0.7071064710617065;0.7071070671081543
101;0.7215292453765869;2.425504684448242;-2.034273386001587;-6.029164255537403e-14;-2.1457669174006186e-06;1.5707954496306977;7.586428409922519e-07;-7.586435231132782e-07;0.7071064710617065;0.7071070671081543
102;0.7270454168319702;2.4830310344696045;-1.9457035064697266;-6.029164255537403e-14;-2.1457669174006186e-06;1.5707954496306977;7.586428409922519e-07;-7.586435231132782e-07;0.7071064710617065;0.7071070671081543
103;0.7325150370597839;2.539123058319092;-1.9107049703598022;-6.029164255537403e-14;-2.1457669174006186e-06;1.5707954496306977;7.586428409922519e-07;-7.586435231132782e-07;0.7071064710617065;0.7071070671081543
104;0.7365865111351013;2.583479642868042;-1.8851566314697266;-6.029164255537403e-14;-2.1457669174006186e-06;1.5707954496306977;7.586428409922519e-07;-7.586435231132782e-07;0.7071064710617065;0.7071070671081543
105;0.741973876953125;2.645458698272705;-1.8052887916564941;-6.029164255537403e-14;-2.1457669174006186e-06;1.5707954496306977;7.586428409922519e-07;-7.586435231132782e-07;0.7071064710617065;0.7071070671081543
106;0.7486412525177002;2.715745210647583;-1.8870474100112915;-6.029164255537403e-14;-2.1457669174006186e-06;1.5707954496306977;7.586428409922519e-07;-7.586435231132782e-07;0.7071064710617065;0.7071070671081543
